# Pbox  18500.00  10 4095  0.0     0    1.0000 0.12760     4
# VJ3.0  pw (us)  pwr  pwrf  dres  dmf  dcyc   B1max (kHz)  Stype
# ---------------------------------------------------------------
# Pxsim 0.0185000 126.5602 1.000 600.0 0.0000000 0.0000000 0.00
# data: pw (s) B1max (Hz) status sw (Hz) T1 (s)   T2 (s) RDC (Hz)
# ---------------------------------------------------------------
# Pbox.inp data :
# ~~~~~~~~~~~~~~~~~~~~~~~~~~~Waves~~~~~~~~~~~~~~~~~~~~~~~~~~~~~~~~~~
#   shape   bw(/pw)   ofs  st  ph  fla  trev  d1  d2   d0   wrp  php
# ~~~~~~~~~~~~~~~~~~~~~~~~~~~~~~~~~~~~~~~~~~~~~~~~~~~~~~~~~~~~~~~~~~
# { rsnob 100.0 0 1 0.000 180.0 }
#
# type      = r          mod       = n          dres      = n         
# steps     = n          stepsize  = 10.00      attn      = i         
# refofs    = n          wrap      = n          sfrq      = n         
# sucyc     = d          reps      = 4.000000   header    = y         
# bscor     = n          pad1      = n          pad2      = n         
# bsim      = n          T1        = n          T2        = n         
# rdc       = n          dcyc      = n          sw        = n         
#
# RF Calibration Data :  ref_pwr   = 58         ref_pw90  = 7.80
# ~~~~~~~~~~~~~~~~~~~~~
###
# ------------------- Shape data ------------------
# pwtot      = 0.0185000 (total pw, s)
# power      = 10 (power level, dB)
# pwrf       = 4095 (fine power)
# B1max      = 0.1276 (B1max, kHz)
# B1rms      = 0.0559 (B1[RMS], kHz)
# nptot      = 1850 (total number of steps)
# stepsize   = 10.00 (length of a single step, us)
# maxamp     = 1015.7 (max amplitude)
# ------------------------------------------------- 
#      phase      amplitude   length     gate 
# ------------------------------------------------- 
        0.00      1023.00      0.0        0
     180.000       51.264      1.0        1
     180.000       51.267      1.0        1
     180.000       51.276      1.0        1
     180.000       51.290      1.0        1
     180.000       51.311      1.0        1
     180.000       51.337      1.0        1
     180.000       51.370      1.0        1
     180.000       51.408      1.0        1
     180.000       51.452      1.0        1
     180.000       51.502      1.0        1
     180.000       51.558      1.0        1
     180.000       51.620      1.0        1
     180.000       51.687      1.0        1
     180.000       51.761      1.0        1
     180.000       51.840      1.0        1
     180.000       51.925      1.0        1
     180.000       52.016      1.0        1
     180.000       52.112      1.0        1
     180.000       52.215      1.0        1
     180.000       52.323      1.0        1
     180.000       52.437      1.0        1
     180.000       52.556      1.0        1
     180.000       52.682      1.0        1
     180.000       52.813      1.0        1
     180.000       52.949      1.0        1
     180.000       53.091      1.0        1
     180.000       53.239      1.0        1
     180.000       53.393      1.0        1
     180.000       53.552      1.0        1
     180.000       53.717      1.0        1
     180.000       53.887      1.0        1
     180.000       54.063      1.0        1
     180.000       54.244      1.0        1
     180.000       54.431      1.0        1
     180.000       54.623      1.0        1
     180.000       54.821      1.0        1
     180.000       55.024      1.0        1
     180.000       55.232      1.0        1
     180.000       55.446      1.0        1
     180.000       55.665      1.0        1
     180.000       55.889      1.0        1
     180.000       56.118      1.0        1
     180.000       56.353      1.0        1
     180.000       56.593      1.0        1
     180.000       56.838      1.0        1
     180.000       57.088      1.0        1
     180.000       57.343      1.0        1
     180.000       57.603      1.0        1
     180.000       57.868      1.0        1
     180.000       58.138      1.0        1
     180.000       58.413      1.0        1
     180.000       58.693      1.0        1
     180.000       58.978      1.0        1
     180.000       59.268      1.0        1
     180.000       59.562      1.0        1
     180.000       59.861      1.0        1
     180.000       60.164      1.0        1
     180.000       60.473      1.0        1
     180.000       60.786      1.0        1
     180.000       61.103      1.0        1
     180.000       61.425      1.0        1
     180.000       61.751      1.0        1
     180.000       62.082      1.0        1
     180.000       62.417      1.0        1
     180.000       62.757      1.0        1
     180.000       63.100      1.0        1
     180.000       63.448      1.0        1
     180.000       63.800      1.0        1
     180.000       64.156      1.0        1
     180.000       64.517      1.0        1
     180.000       64.881      1.0        1
     180.000       65.249      1.0        1
     180.000       65.621      1.0        1
     180.000       65.997      1.0        1
     180.000       66.377      1.0        1
     180.000       66.760      1.0        1
     180.000       67.148      1.0        1
     180.000       67.539      1.0        1
     180.000       67.933      1.0        1
     180.000       68.331      1.0        1
     180.000       68.732      1.0        1
     180.000       69.137      1.0        1
     180.000       69.545      1.0        1
     180.000       69.957      1.0        1
     180.000       70.372      1.0        1
     180.000       70.790      1.0        1
     180.000       71.211      1.0        1
     180.000       71.635      1.0        1
     180.000       72.062      1.0        1
     180.000       72.492      1.0        1
     180.000       72.925      1.0        1
     180.000       73.361      1.0        1
     180.000       73.799      1.0        1
     180.000       74.241      1.0        1
     180.000       74.684      1.0        1
     180.000       75.131      1.0        1
     180.000       75.580      1.0        1
     180.000       76.031      1.0        1
     180.000       76.485      1.0        1
     180.000       76.941      1.0        1
     180.000       77.400      1.0        1
     180.000       77.860      1.0        1
     180.000       78.323      1.0        1
     180.000       78.788      1.0        1
     180.000       79.254      1.0        1
     180.000       79.723      1.0        1
     180.000       80.194      1.0        1
     180.000       80.666      1.0        1
     180.000       81.140      1.0        1
     180.000       81.616      1.0        1
     180.000       82.093      1.0        1
     180.000       82.572      1.0        1
     180.000       83.053      1.0        1
     180.000       83.534      1.0        1
     180.000       84.017      1.0        1
     180.000       84.502      1.0        1
     180.000       84.987      1.0        1
     180.000       85.474      1.0        1
     180.000       85.962      1.0        1
     180.000       86.450      1.0        1
     180.000       86.940      1.0        1
     180.000       87.431      1.0        1
     180.000       87.922      1.0        1
     180.000       88.414      1.0        1
     180.000       88.906      1.0        1
     180.000       89.400      1.0        1
     180.000       89.893      1.0        1
     180.000       90.388      1.0        1
     180.000       90.882      1.0        1
     180.000       91.377      1.0        1
     180.000       91.872      1.0        1
     180.000       92.367      1.0        1
     180.000       92.862      1.0        1
     180.000       93.358      1.0        1
     180.000       93.853      1.0        1
     180.000       94.348      1.0        1
     180.000       94.843      1.0        1
     180.000       95.338      1.0        1
     180.000       95.832      1.0        1
     180.000       96.326      1.0        1
     180.000       96.820      1.0        1
     180.000       97.313      1.0        1
     180.000       97.805      1.0        1
     180.000       98.297      1.0        1
     180.000       98.788      1.0        1
     180.000       99.278      1.0        1
     180.000       99.767      1.0        1
     180.000      100.255      1.0        1
     180.000      100.743      1.0        1
     180.000      101.229      1.0        1
     180.000      101.714      1.0        1
     180.000      102.198      1.0        1
     180.000      102.680      1.0        1
     180.000      103.162      1.0        1
     180.000      103.641      1.0        1
     180.000      104.120      1.0        1
     180.000      104.596      1.0        1
     180.000      105.072      1.0        1
     180.000      105.545      1.0        1
     180.000      106.017      1.0        1
     180.000      106.486      1.0        1
     180.000      106.954      1.0        1
     180.000      107.420      1.0        1
     180.000      107.884      1.0        1
     180.000      108.346      1.0        1
     180.000      108.806      1.0        1
     180.000      109.263      1.0        1
     180.000      109.718      1.0        1
     180.000      110.171      1.0        1
     180.000      110.621      1.0        1
     180.000      111.069      1.0        1
     180.000      111.515      1.0        1
     180.000      111.957      1.0        1
     180.000      112.398      1.0        1
     180.000      112.835      1.0        1
     180.000      113.269      1.0        1
     180.000      113.701      1.0        1
     180.000      114.130      1.0        1
     180.000      114.556      1.0        1
     180.000      114.979      1.0        1
     180.000      115.398      1.0        1
     180.000      115.815      1.0        1
     180.000      116.228      1.0        1
     180.000      116.638      1.0        1
     180.000      117.045      1.0        1
     180.000      117.448      1.0        1
     180.000      117.848      1.0        1
     180.000      118.244      1.0        1
     180.000      118.637      1.0        1
     180.000      119.026      1.0        1
     180.000      119.411      1.0        1
     180.000      119.793      1.0        1
     180.000      120.171      1.0        1
     180.000      120.545      1.0        1
     180.000      120.915      1.0        1
     180.000      121.281      1.0        1
     180.000      121.643      1.0        1
     180.000      122.001      1.0        1
     180.000      122.355      1.0        1
     180.000      122.705      1.0        1
     180.000      123.051      1.0        1
     180.000      123.392      1.0        1
     180.000      123.729      1.0        1
     180.000      124.061      1.0        1
     180.000      124.389      1.0        1
     180.000      124.713      1.0        1
     180.000      125.032      1.0        1
     180.000      125.347      1.0        1
     180.000      125.657      1.0        1
     180.000      125.962      1.0        1
     180.000      126.262      1.0        1
     180.000      126.558      1.0        1
     180.000      126.849      1.0        1
     180.000      127.135      1.0        1
     180.000      127.416      1.0        1
     180.000      127.693      1.0        1
     180.000      127.964      1.0        1
     180.000      128.230      1.0        1
     180.000      128.491      1.0        1
     180.000      128.747      1.0        1
     180.000      128.998      1.0        1
     180.000      129.243      1.0        1
     180.000      129.484      1.0        1
     180.000      129.719      1.0        1
     180.000      129.949      1.0        1
     180.000      130.173      1.0        1
     180.000      130.392      1.0        1
     180.000      130.605      1.0        1
     180.000      130.813      1.0        1
     180.000      131.016      1.0        1
     180.000      131.213      1.0        1
     180.000      131.404      1.0        1
     180.000      131.590      1.0        1
     180.000      131.770      1.0        1
     180.000      131.944      1.0        1
     180.000      132.113      1.0        1
     180.000      132.276      1.0        1
     180.000      132.433      1.0        1
     180.000      132.584      1.0        1
     180.000      132.730      1.0        1
     180.000      132.869      1.0        1
     180.000      133.003      1.0        1
     180.000      133.130      1.0        1
     180.000      133.252      1.0        1
     180.000      133.368      1.0        1
     180.000      133.477      1.0        1
     180.000      133.581      1.0        1
     180.000      133.678      1.0        1
     180.000      133.770      1.0        1
     180.000      133.855      1.0        1
     180.000      133.934      1.0        1
     180.000      134.006      1.0        1
     180.000      134.073      1.0        1
     180.000      134.133      1.0        1
     180.000      134.187      1.0        1
     180.000      134.235      1.0        1
     180.000      134.277      1.0        1
     180.000      134.312      1.0        1
     180.000      134.341      1.0        1
     180.000      134.363      1.0        1
     180.000      134.379      1.0        1
     180.000      134.388      1.0        1
     180.000      134.392      1.0        1
     180.000      134.388      1.0        1
     180.000      134.378      1.0        1
     180.000      134.362      1.0        1
     180.000      134.339      1.0        1
     180.000      134.310      1.0        1
     180.000      134.274      1.0        1
     180.000      134.232      1.0        1
     180.000      134.183      1.0        1
     180.000      134.127      1.0        1
     180.000      134.065      1.0        1
     180.000      133.996      1.0        1
     180.000      133.921      1.0        1
     180.000      133.838      1.0        1
     180.000      133.750      1.0        1
     180.000      133.654      1.0        1
     180.000      133.552      1.0        1
     180.000      133.443      1.0        1
     180.000      133.328      1.0        1
     180.000      133.206      1.0        1
     180.000      133.077      1.0        1
     180.000      132.941      1.0        1
     180.000      132.799      1.0        1
     180.000      132.650      1.0        1
     180.000      132.494      1.0        1
     180.000      132.331      1.0        1
     180.000      132.162      1.0        1
     180.000      131.986      1.0        1
     180.000      131.803      1.0        1
     180.000      131.613      1.0        1
     180.000      131.416      1.0        1
     180.000      131.213      1.0        1
     180.000      131.003      1.0        1
     180.000      130.786      1.0        1
     180.000      130.562      1.0        1
     180.000      130.332      1.0        1
     180.000      130.094      1.0        1
     180.000      129.850      1.0        1
     180.000      129.599      1.0        1
     180.000      129.341      1.0        1
     180.000      129.077      1.0        1
     180.000      128.805      1.0        1
     180.000      128.527      1.0        1
     180.000      128.242      1.0        1
     180.000      127.950      1.0        1
     180.000      127.651      1.0        1
     180.000      127.345      1.0        1
     180.000      127.033      1.0        1
     180.000      126.714      1.0        1
     180.000      126.387      1.0        1
     180.000      126.055      1.0        1
     180.000      125.715      1.0        1
     180.000      125.368      1.0        1
     180.000      125.015      1.0        1
     180.000      124.655      1.0        1
     180.000      124.288      1.0        1
     180.000      123.914      1.0        1
     180.000      123.533      1.0        1
     180.000      123.146      1.0        1
     180.000      122.752      1.0        1
     180.000      122.351      1.0        1
     180.000      121.943      1.0        1
     180.000      121.528      1.0        1
     180.000      121.107      1.0        1
     180.000      120.679      1.0        1
     180.000      120.244      1.0        1
     180.000      119.802      1.0        1
     180.000      119.354      1.0        1
     180.000      118.898      1.0        1
     180.000      118.436      1.0        1
     180.000      117.968      1.0        1
     180.000      117.492      1.0        1
     180.000      117.010      1.0        1
     180.000      116.521      1.0        1
     180.000      116.025      1.0        1
     180.000      115.523      1.0        1
     180.000      115.014      1.0        1
     180.000      114.498      1.0        1
     180.000      113.976      1.0        1
     180.000      113.447      1.0        1
     180.000      112.911      1.0        1
     180.000      112.368      1.0        1
     180.000      111.819      1.0        1
     180.000      111.263      1.0        1
     180.000      110.701      1.0        1
     180.000      110.131      1.0        1
     180.000      109.556      1.0        1
     180.000      108.973      1.0        1
     180.000      108.384      1.0        1
     180.000      107.788      1.0        1
     180.000      107.186      1.0        1
     180.000      106.577      1.0        1
     180.000      105.962      1.0        1
     180.000      105.339      1.0        1
     180.000      104.711      1.0        1
     180.000      104.075      1.0        1
     180.000      103.434      1.0        1
     180.000      102.785      1.0        1
     180.000      102.130      1.0        1
     180.000      101.469      1.0        1
     180.000      100.801      1.0        1
     180.000      100.126      1.0        1
     180.000       99.445      1.0        1
     180.000       98.757      1.0        1
     180.000       98.063      1.0        1
     180.000       97.362      1.0        1
     180.000       96.655      1.0        1
     180.000       95.941      1.0        1
     180.000       95.221      1.0        1
     180.000       94.494      1.0        1
     180.000       93.761      1.0        1
     180.000       93.022      1.0        1
     180.000       92.276      1.0        1
     180.000       91.523      1.0        1
     180.000       90.764      1.0        1
     180.000       89.998      1.0        1
     180.000       89.226      1.0        1
     180.000       88.448      1.0        1
     180.000       87.663      1.0        1
     180.000       86.872      1.0        1
     180.000       86.074      1.0        1
     180.000       85.270      1.0        1
     180.000       84.460      1.0        1
     180.000       83.643      1.0        1
     180.000       82.819      1.0        1
     180.000       81.990      1.0        1
     180.000       81.153      1.0        1
     180.000       80.311      1.0        1
     180.000       79.462      1.0        1
     180.000       78.606      1.0        1
     180.000       77.745      1.0        1
     180.000       76.876      1.0        1
     180.000       76.002      1.0        1
     180.000       75.121      1.0        1
     180.000       74.233      1.0        1
     180.000       73.340      1.0        1
     180.000       72.440      1.0        1
     180.000       71.533      1.0        1
     180.000       70.620      1.0        1
     180.000       69.701      1.0        1
     180.000       68.775      1.0        1
     180.000       67.843      1.0        1
     180.000       66.905      1.0        1
     180.000       65.960      1.0        1
     180.000       65.009      1.0        1
     180.000       64.051      1.0        1
     180.000       63.087      1.0        1
     180.000       62.117      1.0        1
     180.000       61.140      1.0        1
     180.000       60.156      1.0        1
     180.000       59.167      1.0        1
     180.000       58.171      1.0        1
     180.000       57.168      1.0        1
     180.000       56.160      1.0        1
     180.000       55.144      1.0        1
     180.000       54.123      1.0        1
     180.000       53.095      1.0        1
     180.000       52.060      1.0        1
     180.000       51.019      1.0        1
     180.000       49.972      1.0        1
     180.000       48.918      1.0        1
     180.000       47.858      1.0        1
     180.000       46.791      1.0        1
     180.000       45.718      1.0        1
     180.000       44.638      1.0        1
     180.000       43.552      1.0        1
     180.000       42.459      1.0        1
     180.000       41.360      1.0        1
     180.000       40.254      1.0        1
     180.000       39.142      1.0        1
     180.000       38.023      1.0        1
     180.000       36.898      1.0        1
     180.000       35.766      1.0        1
     180.000       34.628      1.0        1
     180.000       33.483      1.0        1
     180.000       32.332      1.0        1
     180.000       31.174      1.0        1
     180.000       30.009      1.0        1
     180.000       28.838      1.0        1
     180.000       27.660      1.0        1
     180.000       26.475      1.0        1
     180.000       25.284      1.0        1
     180.000       24.086      1.0        1
     180.000       22.882      1.0        1
     180.000       21.671      1.0        1
     180.000       20.453      1.0        1
     180.000       19.228      1.0        1
     180.000       17.997      1.0        1
     180.000       16.759      1.0        1
     180.000       15.514      1.0        1
     180.000       14.263      1.0        1
     180.000       13.004      1.0        1
     180.000       11.739      1.0        1
     180.000       10.467      1.0        1
     180.000        9.188      1.0        1
     180.000        7.903      1.0        1
     180.000        6.610      1.0        1
     180.000        5.311      1.0        1
     180.000        4.005      1.0        1
     180.000        2.691      1.0        1
     180.000        1.371      1.0        1
     180.000        0.044      1.0        1
       0.000        0.000      1.0        0
       0.000        0.631      1.0        1
       0.000        1.979      1.0        1
       0.000        3.334      1.0        1
       0.000        4.696      1.0        1
       0.000        6.066      1.0        1
       0.000        7.442      1.0        1
       0.000        8.825      1.0        1
       0.000       10.216      1.0        1
       0.000       11.614      1.0        1
       0.000       13.019      1.0        1
       0.000       14.431      1.0        1
       0.000       15.850      1.0        1
       0.000       17.277      1.0        1
       0.000       18.710      1.0        1
       0.000       20.152      1.0        1
       0.000       21.600      1.0        1
       0.000       23.056      1.0        1
       0.000       24.519      1.0        1
       0.000       25.989      1.0        1
       0.000       27.467      1.0        1
       0.000       28.953      1.0        1
       0.000       30.445      1.0        1
       0.000       31.945      1.0        1
       0.000       33.453      1.0        1
       0.000       34.968      1.0        1
       0.000       36.491      1.0        1
       0.000       38.021      1.0        1
       0.000       39.559      1.0        1
       0.000       41.105      1.0        1
       0.000       42.658      1.0        1
       0.000       44.219      1.0        1
       0.000       45.787      1.0        1
       0.000       47.363      1.0        1
       0.000       48.947      1.0        1
       0.000       50.539      1.0        1
       0.000       52.138      1.0        1
       0.000       53.746      1.0        1
       0.000       55.361      1.0        1
       0.000       56.984      1.0        1
       0.000       58.615      1.0        1
       0.000       60.253      1.0        1
       0.000       61.900      1.0        1
       0.000       63.555      1.0        1
       0.000       65.217      1.0        1
       0.000       66.888      1.0        1
       0.000       68.567      1.0        1
       0.000       70.253      1.0        1
       0.000       71.948      1.0        1
       0.000       73.651      1.0        1
       0.000       75.362      1.0        1
       0.000       77.081      1.0        1
       0.000       78.808      1.0        1
       0.000       80.544      1.0        1
       0.000       82.288      1.0        1
       0.000       84.040      1.0        1
       0.000       85.800      1.0        1
       0.000       87.569      1.0        1
       0.000       89.346      1.0        1
       0.000       91.131      1.0        1
       0.000       92.924      1.0        1
       0.000       94.727      1.0        1
       0.000       96.537      1.0        1
       0.000       98.356      1.0        1
       0.000      100.183      1.0        1
       0.000      102.019      1.0        1
       0.000      103.863      1.0        1
       0.000      105.716      1.0        1
       0.000      107.578      1.0        1
       0.000      109.448      1.0        1
       0.000      111.326      1.0        1
       0.000      113.214      1.0        1
       0.000      115.109      1.0        1
       0.000      117.014      1.0        1
       0.000      118.927      1.0        1
       0.000      120.849      1.0        1
       0.000      122.780      1.0        1
       0.000      124.719      1.0        1
       0.000      126.667      1.0        1
       0.000      128.624      1.0        1
       0.000      130.590      1.0        1
       0.000      132.564      1.0        1
       0.000      134.548      1.0        1
       0.000      136.540      1.0        1
       0.000      138.541      1.0        1
       0.000      140.551      1.0        1
       0.000      142.570      1.0        1
       0.000      144.597      1.0        1
       0.000      146.634      1.0        1
       0.000      148.680      1.0        1
       0.000      150.734      1.0        1
       0.000      152.798      1.0        1
       0.000      154.871      1.0        1
       0.000      156.952      1.0        1
       0.000      159.043      1.0        1
       0.000      161.142      1.0        1
       0.000      163.251      1.0        1
       0.000      165.369      1.0        1
       0.000      167.495      1.0        1
       0.000      169.631      1.0        1
       0.000      171.776      1.0        1
       0.000      173.930      1.0        1
       0.000      176.093      1.0        1
       0.000      178.266      1.0        1
       0.000      180.447      1.0        1
       0.000      182.637      1.0        1
       0.000      184.837      1.0        1
       0.000      187.046      1.0        1
       0.000      189.264      1.0        1
       0.000      191.491      1.0        1
       0.000      193.727      1.0        1
       0.000      195.972      1.0        1
       0.000      198.226      1.0        1
       0.000      200.490      1.0        1
       0.000      202.763      1.0        1
       0.000      205.045      1.0        1
       0.000      207.336      1.0        1
       0.000      209.636      1.0        1
       0.000      211.945      1.0        1
       0.000      214.264      1.0        1
       0.000      216.592      1.0        1
       0.000      218.928      1.0        1
       0.000      221.274      1.0        1
       0.000      223.629      1.0        1
       0.000      225.994      1.0        1
       0.000      228.367      1.0        1
       0.000      230.749      1.0        1
       0.000      233.141      1.0        1
       0.000      235.541      1.0        1
       0.000      237.951      1.0        1
       0.000      240.370      1.0        1
       0.000      242.798      1.0        1
       0.000      245.235      1.0        1
       0.000      247.680      1.0        1
       0.000      250.135      1.0        1
       0.000      252.599      1.0        1
       0.000      255.072      1.0        1
       0.000      257.554      1.0        1
       0.000      260.045      1.0        1
       0.000      262.545      1.0        1
       0.000      265.053      1.0        1
       0.000      267.571      1.0        1
       0.000      270.097      1.0        1
       0.000      272.632      1.0        1
       0.000      275.177      1.0        1
       0.000      277.729      1.0        1
       0.000      280.291      1.0        1
       0.000      282.861      1.0        1
       0.000      285.441      1.0        1
       0.000      288.028      1.0        1
       0.000      290.625      1.0        1
       0.000      293.230      1.0        1
       0.000      295.844      1.0        1
       0.000      298.466      1.0        1
       0.000      301.097      1.0        1
       0.000      303.736      1.0        1
       0.000      306.384      1.0        1
       0.000      309.040      1.0        1
       0.000      311.705      1.0        1
       0.000      314.377      1.0        1
       0.000      317.059      1.0        1
       0.000      319.748      1.0        1
       0.000      322.446      1.0        1
       0.000      325.152      1.0        1
       0.000      327.866      1.0        1
       0.000      330.588      1.0        1
       0.000      333.318      1.0        1
       0.000      336.057      1.0        1
       0.000      338.803      1.0        1
       0.000      341.557      1.0        1
       0.000      344.319      1.0        1
       0.000      347.089      1.0        1
       0.000      349.866      1.0        1
       0.000      352.651      1.0        1
       0.000      355.444      1.0        1
       0.000      358.245      1.0        1
       0.000      361.053      1.0        1
       0.000      363.868      1.0        1
       0.000      366.691      1.0        1
       0.000      369.522      1.0        1
       0.000      372.359      1.0        1
       0.000      375.204      1.0        1
       0.000      378.056      1.0        1
       0.000      380.915      1.0        1
       0.000      383.781      1.0        1
       0.000      386.654      1.0        1
       0.000      389.534      1.0        1
       0.000      392.421      1.0        1
       0.000      395.315      1.0        1
       0.000      398.215      1.0        1
       0.000      401.122      1.0        1
       0.000      404.036      1.0        1
       0.000      406.956      1.0        1
       0.000      409.882      1.0        1
       0.000      412.815      1.0        1
       0.000      415.754      1.0        1
       0.000      418.699      1.0        1
       0.000      421.651      1.0        1
       0.000      424.608      1.0        1
       0.000      427.571      1.0        1
       0.000      430.540      1.0        1
       0.000      433.515      1.0        1
       0.000      436.496      1.0        1
       0.000      439.482      1.0        1
       0.000      442.473      1.0        1
       0.000      445.470      1.0        1
       0.000      448.473      1.0        1
       0.000      451.480      1.0        1
       0.000      454.493      1.0        1
       0.000      457.511      1.0        1
       0.000      460.533      1.0        1
       0.000      463.561      1.0        1
       0.000      466.593      1.0        1
       0.000      469.630      1.0        1
       0.000      472.672      1.0        1
       0.000      475.718      1.0        1
       0.000      478.768      1.0        1
       0.000      481.822      1.0        1
       0.000      484.881      1.0        1
       0.000      487.944      1.0        1
       0.000      491.011      1.0        1
       0.000      494.081      1.0        1
       0.000      497.156      1.0        1
       0.000      500.234      1.0        1
       0.000      503.315      1.0        1
       0.000      506.400      1.0        1
       0.000      509.488      1.0        1
       0.000      512.579      1.0        1
       0.000      515.674      1.0        1
       0.000      518.771      1.0        1
       0.000      521.871      1.0        1
       0.000      524.974      1.0        1
       0.000      528.080      1.0        1
       0.000      531.188      1.0        1
       0.000      534.298      1.0        1
       0.000      537.410      1.0        1
       0.000      540.525      1.0        1
       0.000      543.642      1.0        1
       0.000      546.760      1.0        1
       0.000      549.881      1.0        1
       0.000      553.002      1.0        1
       0.000      556.126      1.0        1
       0.000      559.251      1.0        1
       0.000      562.377      1.0        1
       0.000      565.504      1.0        1
       0.000      568.632      1.0        1
       0.000      571.761      1.0        1
       0.000      574.890      1.0        1
       0.000      578.021      1.0        1
       0.000      581.151      1.0        1
       0.000      584.282      1.0        1
       0.000      587.413      1.0        1
       0.000      590.545      1.0        1
       0.000      593.676      1.0        1
       0.000      596.807      1.0        1
       0.000      599.937      1.0        1
       0.000      603.067      1.0        1
       0.000      606.196      1.0        1
       0.000      609.325      1.0        1
       0.000      612.453      1.0        1
       0.000      615.579      1.0        1
       0.000      618.705      1.0        1
       0.000      621.828      1.0        1
       0.000      624.951      1.0        1
       0.000      628.072      1.0        1
       0.000      631.191      1.0        1
       0.000      634.308      1.0        1
       0.000      637.423      1.0        1
       0.000      640.535      1.0        1
       0.000      643.646      1.0        1
       0.000      646.754      1.0        1
       0.000      649.859      1.0        1
       0.000      652.961      1.0        1
       0.000      656.060      1.0        1
       0.000      659.156      1.0        1
       0.000      662.249      1.0        1
       0.000      665.338      1.0        1
       0.000      668.424      1.0        1
       0.000      671.506      1.0        1
       0.000      674.584      1.0        1
       0.000      677.658      1.0        1
       0.000      680.728      1.0        1
       0.000      683.794      1.0        1
       0.000      686.854      1.0        1
       0.000      689.911      1.0        1
       0.000      692.962      1.0        1
       0.000      696.008      1.0        1
       0.000      699.049      1.0        1
       0.000      702.085      1.0        1
       0.000      705.116      1.0        1
       0.000      708.140      1.0        1
       0.000      711.159      1.0        1
       0.000      714.172      1.0        1
       0.000      717.179      1.0        1
       0.000      720.180      1.0        1
       0.000      723.174      1.0        1
       0.000      726.161      1.0        1
       0.000      729.142      1.0        1
       0.000      732.116      1.0        1
       0.000      735.082      1.0        1
       0.000      738.042      1.0        1
       0.000      740.994      1.0        1
       0.000      743.938      1.0        1
       0.000      746.875      1.0        1
       0.000      749.804      1.0        1
       0.000      752.725      1.0        1
       0.000      755.637      1.0        1
       0.000      758.541      1.0        1
       0.000      761.437      1.0        1
       0.000      764.324      1.0        1
       0.000      767.202      1.0        1
       0.000      770.071      1.0        1
       0.000      772.930      1.0        1
       0.000      775.781      1.0        1
       0.000      778.621      1.0        1
       0.000      781.452      1.0        1
       0.000      784.274      1.0        1
       0.000      787.085      1.0        1
       0.000      789.886      1.0        1
       0.000      792.677      1.0        1
       0.000      795.457      1.0        1
       0.000      798.226      1.0        1
       0.000      800.985      1.0        1
       0.000      803.732      1.0        1
       0.000      806.469      1.0        1
       0.000      809.194      1.0        1
       0.000      811.908      1.0        1
       0.000      814.610      1.0        1
       0.000      817.300      1.0        1
       0.000      819.978      1.0        1
       0.000      822.644      1.0        1
       0.000      825.298      1.0        1
       0.000      827.939      1.0        1
       0.000      830.568      1.0        1
       0.000      833.184      1.0        1
       0.000      835.787      1.0        1
       0.000      838.377      1.0        1
       0.000      840.954      1.0        1
       0.000      843.517      1.0        1
       0.000      846.067      1.0        1
       0.000      848.603      1.0        1
       0.000      851.125      1.0        1
       0.000      853.633      1.0        1
       0.000      856.127      1.0        1
       0.000      858.606      1.0        1
       0.000      861.071      1.0        1
       0.000      863.522      1.0        1
       0.000      865.957      1.0        1
       0.000      868.378      1.0        1
       0.000      870.783      1.0        1
       0.000      873.174      1.0        1
       0.000      875.548      1.0        1
       0.000      877.908      1.0        1
       0.000      880.251      1.0        1
       0.000      882.579      1.0        1
       0.000      884.891      1.0        1
       0.000      887.186      1.0        1
       0.000      889.465      1.0        1
       0.000      891.728      1.0        1
       0.000      893.974      1.0        1
       0.000      896.204      1.0        1
       0.000      898.416      1.0        1
       0.000      900.612      1.0        1
       0.000      902.790      1.0        1
       0.000      904.951      1.0        1
       0.000      907.095      1.0        1
       0.000      909.221      1.0        1
       0.000      911.329      1.0        1
       0.000      913.419      1.0        1
       0.000      915.492      1.0        1
       0.000      917.546      1.0        1
       0.000      919.582      1.0        1
       0.000      921.600      1.0        1
       0.000      923.599      1.0        1
       0.000      925.579      1.0        1
       0.000      927.541      1.0        1
       0.000      929.484      1.0        1
       0.000      931.407      1.0        1
       0.000      933.312      1.0        1
       0.000      935.197      1.0        1
       0.000      937.062      1.0        1
       0.000      938.909      1.0        1
       0.000      940.735      1.0        1
       0.000      942.542      1.0        1
       0.000      944.328      1.0        1
       0.000      946.095      1.0        1
       0.000      947.842      1.0        1
       0.000      949.568      1.0        1
       0.000      951.274      1.0        1
       0.000      952.959      1.0        1
       0.000      954.624      1.0        1
       0.000      956.268      1.0        1
       0.000      957.891      1.0        1
       0.000      959.493      1.0        1
       0.000      961.074      1.0        1
       0.000      962.634      1.0        1
       0.000      964.173      1.0        1
       0.000      965.690      1.0        1
       0.000      967.186      1.0        1
       0.000      968.660      1.0        1
       0.000      970.113      1.0        1
       0.000      971.543      1.0        1
       0.000      972.952      1.0        1
       0.000      974.339      1.0        1
       0.000      975.704      1.0        1
       0.000      977.046      1.0        1
       0.000      978.367      1.0        1
       0.000      979.665      1.0        1
       0.000      980.940      1.0        1
       0.000      982.193      1.0        1
       0.000      983.424      1.0        1
       0.000      984.632      1.0        1
       0.000      985.817      1.0        1
       0.000      986.979      1.0        1
       0.000      988.118      1.0        1
       0.000      989.234      1.0        1
       0.000      990.327      1.0        1
       0.000      991.397      1.0        1
       0.000      992.444      1.0        1
       0.000      993.467      1.0        1
       0.000      994.467      1.0        1
       0.000      995.443      1.0        1
       0.000      996.396      1.0        1
       0.000      997.325      1.0        1
       0.000      998.231      1.0        1
       0.000      999.113      1.0        1
       0.000      999.971      1.0        1
       0.000     1000.805      1.0        1
       0.000     1001.616      1.0        1
       0.000     1002.402      1.0        1
       0.000     1003.165      1.0        1
       0.000     1003.903      1.0        1
       0.000     1004.617      1.0        1
       0.000     1005.307      1.0        1
       0.000     1005.973      1.0        1
       0.000     1006.615      1.0        1
       0.000     1007.232      1.0        1
       0.000     1007.825      1.0        1
       0.000     1008.393      1.0        1
       0.000     1008.938      1.0        1
       0.000     1009.457      1.0        1
       0.000     1009.952      1.0        1
       0.000     1010.423      1.0        1
       0.000     1010.869      1.0        1
       0.000     1011.290      1.0        1
       0.000     1011.687      1.0        1
       0.000     1012.059      1.0        1
       0.000     1012.407      1.0        1
       0.000     1012.729      1.0        1
       0.000     1013.027      1.0        1
       0.000     1013.301      1.0        1
       0.000     1013.549      1.0        1
       0.000     1013.773      1.0        1
       0.000     1013.971      1.0        1
       0.000     1014.145      1.0        1
       0.000     1014.295      1.0        1
       0.000     1014.419      1.0        1
       0.000     1014.518      1.0        1
       0.000     1014.593      1.0        1
       0.000     1014.643      1.0        1
       0.000     1014.668      2.0        1
       0.000     1014.643      1.0        1
       0.000     1014.593      1.0        1
       0.000     1014.518      1.0        1
       0.000     1014.419      1.0        1
       0.000     1014.295      1.0        1
       0.000     1014.145      1.0        1
       0.000     1013.971      1.0        1
       0.000     1013.773      1.0        1
       0.000     1013.549      1.0        1
       0.000     1013.301      1.0        1
       0.000     1013.027      1.0        1
       0.000     1012.729      1.0        1
       0.000     1012.407      1.0        1
       0.000     1012.059      1.0        1
       0.000     1011.687      1.0        1
       0.000     1011.290      1.0        1
       0.000     1010.869      1.0        1
       0.000     1010.423      1.0        1
       0.000     1009.952      1.0        1
       0.000     1009.457      1.0        1
       0.000     1008.938      1.0        1
       0.000     1008.393      1.0        1
       0.000     1007.825      1.0        1
       0.000     1007.232      1.0        1
       0.000     1006.615      1.0        1
       0.000     1005.973      1.0        1
       0.000     1005.307      1.0        1
       0.000     1004.617      1.0        1
       0.000     1003.903      1.0        1
       0.000     1003.165      1.0        1
       0.000     1002.402      1.0        1
       0.000     1001.616      1.0        1
       0.000     1000.805      1.0        1
       0.000      999.971      1.0        1
       0.000      999.113      1.0        1
       0.000      998.231      1.0        1
       0.000      997.325      1.0        1
       0.000      996.396      1.0        1
       0.000      995.443      1.0        1
       0.000      994.467      1.0        1
       0.000      993.467      1.0        1
       0.000      992.444      1.0        1
       0.000      991.397      1.0        1
       0.000      990.327      1.0        1
       0.000      989.234      1.0        1
       0.000      988.118      1.0        1
       0.000      986.979      1.0        1
       0.000      985.817      1.0        1
       0.000      984.632      1.0        1
       0.000      983.424      1.0        1
       0.000      982.193      1.0        1
       0.000      980.940      1.0        1
       0.000      979.665      1.0        1
       0.000      978.367      1.0        1
       0.000      977.046      1.0        1
       0.000      975.704      1.0        1
       0.000      974.339      1.0        1
       0.000      972.952      1.0        1
       0.000      971.543      1.0        1
       0.000      970.113      1.0        1
       0.000      968.660      1.0        1
       0.000      967.186      1.0        1
       0.000      965.690      1.0        1
       0.000      964.173      1.0        1
       0.000      962.634      1.0        1
       0.000      961.074      1.0        1
       0.000      959.493      1.0        1
       0.000      957.891      1.0        1
       0.000      956.268      1.0        1
       0.000      954.624      1.0        1
       0.000      952.959      1.0        1
       0.000      951.274      1.0        1
       0.000      949.568      1.0        1
       0.000      947.842      1.0        1
       0.000      946.095      1.0        1
       0.000      944.328      1.0        1
       0.000      942.542      1.0        1
       0.000      940.735      1.0        1
       0.000      938.909      1.0        1
       0.000      937.062      1.0        1
       0.000      935.197      1.0        1
       0.000      933.312      1.0        1
       0.000      931.407      1.0        1
       0.000      929.484      1.0        1
       0.000      927.541      1.0        1
       0.000      925.579      1.0        1
       0.000      923.599      1.0        1
       0.000      921.600      1.0        1
       0.000      919.582      1.0        1
       0.000      917.546      1.0        1
       0.000      915.492      1.0        1
       0.000      913.419      1.0        1
       0.000      911.329      1.0        1
       0.000      909.221      1.0        1
       0.000      907.095      1.0        1
       0.000      904.951      1.0        1
       0.000      902.790      1.0        1
       0.000      900.612      1.0        1
       0.000      898.416      1.0        1
       0.000      896.204      1.0        1
       0.000      893.974      1.0        1
       0.000      891.728      1.0        1
       0.000      889.465      1.0        1
       0.000      887.186      1.0        1
       0.000      884.891      1.0        1
       0.000      882.579      1.0        1
       0.000      880.251      1.0        1
       0.000      877.908      1.0        1
       0.000      875.548      1.0        1
       0.000      873.174      1.0        1
       0.000      870.783      1.0        1
       0.000      868.378      1.0        1
       0.000      865.957      1.0        1
       0.000      863.522      1.0        1
       0.000      861.071      1.0        1
       0.000      858.606      1.0        1
       0.000      856.127      1.0        1
       0.000      853.633      1.0        1
       0.000      851.125      1.0        1
       0.000      848.603      1.0        1
       0.000      846.067      1.0        1
       0.000      843.517      1.0        1
       0.000      840.954      1.0        1
       0.000      838.377      1.0        1
       0.000      835.787      1.0        1
       0.000      833.184      1.0        1
       0.000      830.568      1.0        1
       0.000      827.939      1.0        1
       0.000      825.298      1.0        1
       0.000      822.644      1.0        1
       0.000      819.978      1.0        1
       0.000      817.300      1.0        1
       0.000      814.610      1.0        1
       0.000      811.908      1.0        1
       0.000      809.194      1.0        1
       0.000      806.469      1.0        1
       0.000      803.732      1.0        1
       0.000      800.985      1.0        1
       0.000      798.226      1.0        1
       0.000      795.457      1.0        1
       0.000      792.677      1.0        1
       0.000      789.886      1.0        1
       0.000      787.085      1.0        1
       0.000      784.274      1.0        1
       0.000      781.452      1.0        1
       0.000      778.621      1.0        1
       0.000      775.781      1.0        1
       0.000      772.930      1.0        1
       0.000      770.071      1.0        1
       0.000      767.202      1.0        1
       0.000      764.324      1.0        1
       0.000      761.437      1.0        1
       0.000      758.541      1.0        1
       0.000      755.637      1.0        1
       0.000      752.725      1.0        1
       0.000      749.804      1.0        1
       0.000      746.875      1.0        1
       0.000      743.938      1.0        1
       0.000      740.994      1.0        1
       0.000      738.042      1.0        1
       0.000      735.082      1.0        1
       0.000      732.116      1.0        1
       0.000      729.142      1.0        1
       0.000      726.161      1.0        1
       0.000      723.174      1.0        1
       0.000      720.180      1.0        1
       0.000      717.179      1.0        1
       0.000      714.172      1.0        1
       0.000      711.159      1.0        1
       0.000      708.140      1.0        1
       0.000      705.116      1.0        1
       0.000      702.085      1.0        1
       0.000      699.049      1.0        1
       0.000      696.008      1.0        1
       0.000      692.962      1.0        1
       0.000      689.911      1.0        1
       0.000      686.854      1.0        1
       0.000      683.794      1.0        1
       0.000      680.728      1.0        1
       0.000      677.658      1.0        1
       0.000      674.584      1.0        1
       0.000      671.506      1.0        1
       0.000      668.424      1.0        1
       0.000      665.338      1.0        1
       0.000      662.249      1.0        1
       0.000      659.156      1.0        1
       0.000      656.060      1.0        1
       0.000      652.961      1.0        1
       0.000      649.859      1.0        1
       0.000      646.754      1.0        1
       0.000      643.646      1.0        1
       0.000      640.535      1.0        1
       0.000      637.423      1.0        1
       0.000      634.308      1.0        1
       0.000      631.191      1.0        1
       0.000      628.072      1.0        1
       0.000      624.951      1.0        1
       0.000      621.828      1.0        1
       0.000      618.705      1.0        1
       0.000      615.579      1.0        1
       0.000      612.453      1.0        1
       0.000      609.325      1.0        1
       0.000      606.196      1.0        1
       0.000      603.067      1.0        1
       0.000      599.937      1.0        1
       0.000      596.807      1.0        1
       0.000      593.676      1.0        1
       0.000      590.545      1.0        1
       0.000      587.413      1.0        1
       0.000      584.282      1.0        1
       0.000      581.151      1.0        1
       0.000      578.021      1.0        1
       0.000      574.890      1.0        1
       0.000      571.761      1.0        1
       0.000      568.632      1.0        1
       0.000      565.504      1.0        1
       0.000      562.377      1.0        1
       0.000      559.251      1.0        1
       0.000      556.126      1.0        1
       0.000      553.002      1.0        1
       0.000      549.881      1.0        1
       0.000      546.760      1.0        1
       0.000      543.642      1.0        1
       0.000      540.525      1.0        1
       0.000      537.410      1.0        1
       0.000      534.298      1.0        1
       0.000      531.188      1.0        1
       0.000      528.080      1.0        1
       0.000      524.974      1.0        1
       0.000      521.871      1.0        1
       0.000      518.771      1.0        1
       0.000      515.674      1.0        1
       0.000      512.579      1.0        1
       0.000      509.488      1.0        1
       0.000      506.400      1.0        1
       0.000      503.315      1.0        1
       0.000      500.234      1.0        1
       0.000      497.156      1.0        1
       0.000      494.081      1.0        1
       0.000      491.011      1.0        1
       0.000      487.944      1.0        1
       0.000      484.881      1.0        1
       0.000      481.822      1.0        1
       0.000      478.768      1.0        1
       0.000      475.718      1.0        1
       0.000      472.672      1.0        1
       0.000      469.630      1.0        1
       0.000      466.593      1.0        1
       0.000      463.561      1.0        1
       0.000      460.533      1.0        1
       0.000      457.511      1.0        1
       0.000      454.493      1.0        1
       0.000      451.480      1.0        1
       0.000      448.473      1.0        1
       0.000      445.470      1.0        1
       0.000      442.473      1.0        1
       0.000      439.482      1.0        1
       0.000      436.496      1.0        1
       0.000      433.515      1.0        1
       0.000      430.540      1.0        1
       0.000      427.571      1.0        1
       0.000      424.608      1.0        1
       0.000      421.651      1.0        1
       0.000      418.699      1.0        1
       0.000      415.754      1.0        1
       0.000      412.815      1.0        1
       0.000      409.882      1.0        1
       0.000      406.956      1.0        1
       0.000      404.036      1.0        1
       0.000      401.122      1.0        1
       0.000      398.215      1.0        1
       0.000      395.315      1.0        1
       0.000      392.421      1.0        1
       0.000      389.534      1.0        1
       0.000      386.654      1.0        1
       0.000      383.781      1.0        1
       0.000      380.915      1.0        1
       0.000      378.056      1.0        1
       0.000      375.204      1.0        1
       0.000      372.359      1.0        1
       0.000      369.522      1.0        1
       0.000      366.691      1.0        1
       0.000      363.868      1.0        1
       0.000      361.053      1.0        1
       0.000      358.245      1.0        1
       0.000      355.444      1.0        1
       0.000      352.651      1.0        1
       0.000      349.866      1.0        1
       0.000      347.089      1.0        1
       0.000      344.319      1.0        1
       0.000      341.557      1.0        1
       0.000      338.803      1.0        1
       0.000      336.057      1.0        1
       0.000      333.318      1.0        1
       0.000      330.588      1.0        1
       0.000      327.866      1.0        1
       0.000      325.152      1.0        1
       0.000      322.446      1.0        1
       0.000      319.748      1.0        1
       0.000      317.059      1.0        1
       0.000      314.377      1.0        1
       0.000      311.705      1.0        1
       0.000      309.040      1.0        1
       0.000      306.384      1.0        1
       0.000      303.736      1.0        1
       0.000      301.097      1.0        1
       0.000      298.466      1.0        1
       0.000      295.844      1.0        1
       0.000      293.230      1.0        1
       0.000      290.625      1.0        1
       0.000      288.028      1.0        1
       0.000      285.441      1.0        1
       0.000      282.861      1.0        1
       0.000      280.291      1.0        1
       0.000      277.729      1.0        1
       0.000      275.177      1.0        1
       0.000      272.632      1.0        1
       0.000      270.097      1.0        1
       0.000      267.571      1.0        1
       0.000      265.053      1.0        1
       0.000      262.545      1.0        1
       0.000      260.045      1.0        1
       0.000      257.554      1.0        1
       0.000      255.072      1.0        1
       0.000      252.599      1.0        1
       0.000      250.135      1.0        1
       0.000      247.680      1.0        1
       0.000      245.235      1.0        1
       0.000      242.798      1.0        1
       0.000      240.370      1.0        1
       0.000      237.951      1.0        1
       0.000      235.541      1.0        1
       0.000      233.141      1.0        1
       0.000      230.749      1.0        1
       0.000      228.367      1.0        1
       0.000      225.994      1.0        1
       0.000      223.629      1.0        1
       0.000      221.274      1.0        1
       0.000      218.928      1.0        1
       0.000      216.592      1.0        1
       0.000      214.264      1.0        1
       0.000      211.945      1.0        1
       0.000      209.636      1.0        1
       0.000      207.336      1.0        1
       0.000      205.045      1.0        1
       0.000      202.763      1.0        1
       0.000      200.490      1.0        1
       0.000      198.226      1.0        1
       0.000      195.972      1.0        1
       0.000      193.727      1.0        1
       0.000      191.491      1.0        1
       0.000      189.264      1.0        1
       0.000      187.046      1.0        1
       0.000      184.837      1.0        1
       0.000      182.637      1.0        1
       0.000      180.447      1.0        1
       0.000      178.266      1.0        1
       0.000      176.093      1.0        1
       0.000      173.930      1.0        1
       0.000      171.776      1.0        1
       0.000      169.631      1.0        1
       0.000      167.495      1.0        1
       0.000      165.369      1.0        1
       0.000      163.251      1.0        1
       0.000      161.142      1.0        1
       0.000      159.043      1.0        1
       0.000      156.952      1.0        1
       0.000      154.871      1.0        1
       0.000      152.798      1.0        1
       0.000      150.734      1.0        1
       0.000      148.680      1.0        1
       0.000      146.634      1.0        1
       0.000      144.597      1.0        1
       0.000      142.570      1.0        1
       0.000      140.551      1.0        1
       0.000      138.541      1.0        1
       0.000      136.540      1.0        1
       0.000      134.548      1.0        1
       0.000      132.564      1.0        1
       0.000      130.590      1.0        1
       0.000      128.624      1.0        1
       0.000      126.667      1.0        1
       0.000      124.719      1.0        1
       0.000      122.780      1.0        1
       0.000      120.849      1.0        1
       0.000      118.927      1.0        1
       0.000      117.014      1.0        1
       0.000      115.109      1.0        1
       0.000      113.214      1.0        1
       0.000      111.326      1.0        1
       0.000      109.448      1.0        1
       0.000      107.578      1.0        1
       0.000      105.716      1.0        1
       0.000      103.863      1.0        1
       0.000      102.019      1.0        1
       0.000      100.183      1.0        1
       0.000       98.356      1.0        1
       0.000       96.537      1.0        1
       0.000       94.727      1.0        1
       0.000       92.924      1.0        1
       0.000       91.131      1.0        1
       0.000       89.346      1.0        1
       0.000       87.569      1.0        1
       0.000       85.800      1.0        1
       0.000       84.040      1.0        1
       0.000       82.288      1.0        1
       0.000       80.544      1.0        1
       0.000       78.808      1.0        1
       0.000       77.081      1.0        1
       0.000       75.362      1.0        1
       0.000       73.651      1.0        1
       0.000       71.948      1.0        1
       0.000       70.253      1.0        1
       0.000       68.567      1.0        1
       0.000       66.888      1.0        1
       0.000       65.217      1.0        1
       0.000       63.555      1.0        1
       0.000       61.900      1.0        1
       0.000       60.253      1.0        1
       0.000       58.615      1.0        1
       0.000       56.984      1.0        1
       0.000       55.361      1.0        1
       0.000       53.746      1.0        1
       0.000       52.138      1.0        1
       0.000       50.539      1.0        1
       0.000       48.947      1.0        1
       0.000       47.363      1.0        1
       0.000       45.787      1.0        1
       0.000       44.219      1.0        1
       0.000       42.658      1.0        1
       0.000       41.105      1.0        1
       0.000       39.559      1.0        1
       0.000       38.021      1.0        1
       0.000       36.491      1.0        1
       0.000       34.968      1.0        1
       0.000       33.453      1.0        1
       0.000       31.945      1.0        1
       0.000       30.445      1.0        1
       0.000       28.953      1.0        1
       0.000       27.467      1.0        1
       0.000       25.989      1.0        1
       0.000       24.519      1.0        1
       0.000       23.056      1.0        1
       0.000       21.600      1.0        1
       0.000       20.152      1.0        1
       0.000       18.710      1.0        1
       0.000       17.277      1.0        1
       0.000       15.850      1.0        1
       0.000       14.431      1.0        1
       0.000       13.019      1.0        1
       0.000       11.614      1.0        1
       0.000       10.216      1.0        1
       0.000        8.825      1.0        1
       0.000        7.442      1.0        1
       0.000        6.066      1.0        1
       0.000        4.696      1.0        1
       0.000        3.334      1.0        1
       0.000        1.979      1.0        1
       0.000        0.631      1.0        1
       0.000        0.000      1.0        0
     180.000        0.044      1.0        1
     180.000        1.371      1.0        1
     180.000        2.691      1.0        1
     180.000        4.005      1.0        1
     180.000        5.311      1.0        1
     180.000        6.610      1.0        1
     180.000        7.903      1.0        1
     180.000        9.188      1.0        1
     180.000       10.467      1.0        1
     180.000       11.739      1.0        1
     180.000       13.004      1.0        1
     180.000       14.263      1.0        1
     180.000       15.514      1.0        1
     180.000       16.759      1.0        1
     180.000       17.997      1.0        1
     180.000       19.228      1.0        1
     180.000       20.453      1.0        1
     180.000       21.671      1.0        1
     180.000       22.882      1.0        1
     180.000       24.086      1.0        1
     180.000       25.284      1.0        1
     180.000       26.475      1.0        1
     180.000       27.660      1.0        1
     180.000       28.838      1.0        1
     180.000       30.009      1.0        1
     180.000       31.174      1.0        1
     180.000       32.332      1.0        1
     180.000       33.483      1.0        1
     180.000       34.628      1.0        1
     180.000       35.766      1.0        1
     180.000       36.898      1.0        1
     180.000       38.023      1.0        1
     180.000       39.142      1.0        1
     180.000       40.254      1.0        1
     180.000       41.360      1.0        1
     180.000       42.459      1.0        1
     180.000       43.552      1.0        1
     180.000       44.638      1.0        1
     180.000       45.718      1.0        1
     180.000       46.791      1.0        1
     180.000       47.858      1.0        1
     180.000       48.918      1.0        1
     180.000       49.972      1.0        1
     180.000       51.019      1.0        1
     180.000       52.060      1.0        1
     180.000       53.095      1.0        1
     180.000       54.123      1.0        1
     180.000       55.144      1.0        1
     180.000       56.160      1.0        1
     180.000       57.168      1.0        1
     180.000       58.171      1.0        1
     180.000       59.167      1.0        1
     180.000       60.156      1.0        1
     180.000       61.140      1.0        1
     180.000       62.117      1.0        1
     180.000       63.087      1.0        1
     180.000       64.051      1.0        1
     180.000       65.009      1.0        1
     180.000       65.960      1.0        1
     180.000       66.905      1.0        1
     180.000       67.843      1.0        1
     180.000       68.775      1.0        1
     180.000       69.701      1.0        1
     180.000       70.620      1.0        1
     180.000       71.533      1.0        1
     180.000       72.440      1.0        1
     180.000       73.340      1.0        1
     180.000       74.233      1.0        1
     180.000       75.121      1.0        1
     180.000       76.002      1.0        1
     180.000       76.876      1.0        1
     180.000       77.745      1.0        1
     180.000       78.606      1.0        1
     180.000       79.462      1.0        1
     180.000       80.311      1.0        1
     180.000       81.153      1.0        1
     180.000       81.990      1.0        1
     180.000       82.819      1.0        1
     180.000       83.643      1.0        1
     180.000       84.460      1.0        1
     180.000       85.270      1.0        1
     180.000       86.074      1.0        1
     180.000       86.872      1.0        1
     180.000       87.663      1.0        1
     180.000       88.448      1.0        1
     180.000       89.226      1.0        1
     180.000       89.998      1.0        1
     180.000       90.764      1.0        1
     180.000       91.523      1.0        1
     180.000       92.276      1.0        1
     180.000       93.022      1.0        1
     180.000       93.761      1.0        1
     180.000       94.494      1.0        1
     180.000       95.221      1.0        1
     180.000       95.941      1.0        1
     180.000       96.655      1.0        1
     180.000       97.362      1.0        1
     180.000       98.063      1.0        1
     180.000       98.757      1.0        1
     180.000       99.445      1.0        1
     180.000      100.126      1.0        1
     180.000      100.801      1.0        1
     180.000      101.469      1.0        1
     180.000      102.130      1.0        1
     180.000      102.785      1.0        1
     180.000      103.434      1.0        1
     180.000      104.075      1.0        1
     180.000      104.711      1.0        1
     180.000      105.339      1.0        1
     180.000      105.962      1.0        1
     180.000      106.577      1.0        1
     180.000      107.186      1.0        1
     180.000      107.788      1.0        1
     180.000      108.384      1.0        1
     180.000      108.973      1.0        1
     180.000      109.556      1.0        1
     180.000      110.131      1.0        1
     180.000      110.701      1.0        1
     180.000      111.263      1.0        1
     180.000      111.819      1.0        1
     180.000      112.368      1.0        1
     180.000      112.911      1.0        1
     180.000      113.447      1.0        1
     180.000      113.976      1.0        1
     180.000      114.498      1.0        1
     180.000      115.014      1.0        1
     180.000      115.523      1.0        1
     180.000      116.025      1.0        1
     180.000      116.521      1.0        1
     180.000      117.010      1.0        1
     180.000      117.492      1.0        1
     180.000      117.968      1.0        1
     180.000      118.436      1.0        1
     180.000      118.898      1.0        1
     180.000      119.354      1.0        1
     180.000      119.802      1.0        1
     180.000      120.244      1.0        1
     180.000      120.679      1.0        1
     180.000      121.107      1.0        1
     180.000      121.528      1.0        1
     180.000      121.943      1.0        1
     180.000      122.351      1.0        1
     180.000      122.752      1.0        1
     180.000      123.146      1.0        1
     180.000      123.533      1.0        1
     180.000      123.914      1.0        1
     180.000      124.288      1.0        1
     180.000      124.655      1.0        1
     180.000      125.015      1.0        1
     180.000      125.368      1.0        1
     180.000      125.715      1.0        1
     180.000      126.055      1.0        1
     180.000      126.387      1.0        1
     180.000      126.714      1.0        1
     180.000      127.033      1.0        1
     180.000      127.345      1.0        1
     180.000      127.651      1.0        1
     180.000      127.950      1.0        1
     180.000      128.242      1.0        1
     180.000      128.527      1.0        1
     180.000      128.805      1.0        1
     180.000      129.077      1.0        1
     180.000      129.341      1.0        1
     180.000      129.599      1.0        1
     180.000      129.850      1.0        1
     180.000      130.094      1.0        1
     180.000      130.332      1.0        1
     180.000      130.562      1.0        1
     180.000      130.786      1.0        1
     180.000      131.003      1.0        1
     180.000      131.213      1.0        1
     180.000      131.416      1.0        1
     180.000      131.613      1.0        1
     180.000      131.803      1.0        1
     180.000      131.986      1.0        1
     180.000      132.162      1.0        1
     180.000      132.331      1.0        1
     180.000      132.494      1.0        1
     180.000      132.650      1.0        1
     180.000      132.799      1.0        1
     180.000      132.941      1.0        1
     180.000      133.077      1.0        1
     180.000      133.206      1.0        1
     180.000      133.328      1.0        1
     180.000      133.443      1.0        1
     180.000      133.552      1.0        1
     180.000      133.654      1.0        1
     180.000      133.750      1.0        1
     180.000      133.838      1.0        1
     180.000      133.921      1.0        1
     180.000      133.996      1.0        1
     180.000      134.065      1.0        1
     180.000      134.127      1.0        1
     180.000      134.183      1.0        1
     180.000      134.232      1.0        1
     180.000      134.274      1.0        1
     180.000      134.310      1.0        1
     180.000      134.339      1.0        1
     180.000      134.362      1.0        1
     180.000      134.378      1.0        1
     180.000      134.388      1.0        1
     180.000      134.392      1.0        1
     180.000      134.388      1.0        1
     180.000      134.379      1.0        1
     180.000      134.363      1.0        1
     180.000      134.341      1.0        1
     180.000      134.312      1.0        1
     180.000      134.277      1.0        1
     180.000      134.235      1.0        1
     180.000      134.187      1.0        1
     180.000      134.133      1.0        1
     180.000      134.073      1.0        1
     180.000      134.006      1.0        1
     180.000      133.934      1.0        1
     180.000      133.855      1.0        1
     180.000      133.770      1.0        1
     180.000      133.678      1.0        1
     180.000      133.581      1.0        1
     180.000      133.477      1.0        1
     180.000      133.368      1.0        1
     180.000      133.252      1.0        1
     180.000      133.130      1.0        1
     180.000      133.003      1.0        1
     180.000      132.869      1.0        1
     180.000      132.730      1.0        1
     180.000      132.584      1.0        1
     180.000      132.433      1.0        1
     180.000      132.276      1.0        1
     180.000      132.113      1.0        1
     180.000      131.944      1.0        1
     180.000      131.770      1.0        1
     180.000      131.590      1.0        1
     180.000      131.404      1.0        1
     180.000      131.213      1.0        1
     180.000      131.016      1.0        1
     180.000      130.813      1.0        1
     180.000      130.605      1.0        1
     180.000      130.392      1.0        1
     180.000      130.173      1.0        1
     180.000      129.949      1.0        1
     180.000      129.719      1.0        1
     180.000      129.484      1.0        1
     180.000      129.243      1.0        1
     180.000      128.998      1.0        1
     180.000      128.747      1.0        1
     180.000      128.491      1.0        1
     180.000      128.230      1.0        1
     180.000      127.964      1.0        1
     180.000      127.693      1.0        1
     180.000      127.416      1.0        1
     180.000      127.135      1.0        1
     180.000      126.849      1.0        1
     180.000      126.558      1.0        1
     180.000      126.262      1.0        1
     180.000      125.962      1.0        1
     180.000      125.657      1.0        1
     180.000      125.347      1.0        1
     180.000      125.032      1.0        1
     180.000      124.713      1.0        1
     180.000      124.389      1.0        1
     180.000      124.061      1.0        1
     180.000      123.729      1.0        1
     180.000      123.392      1.0        1
     180.000      123.051      1.0        1
     180.000      122.705      1.0        1
     180.000      122.355      1.0        1
     180.000      122.001      1.0        1
     180.000      121.643      1.0        1
     180.000      121.281      1.0        1
     180.000      120.915      1.0        1
     180.000      120.545      1.0        1
     180.000      120.171      1.0        1
     180.000      119.793      1.0        1
     180.000      119.411      1.0        1
     180.000      119.026      1.0        1
     180.000      118.637      1.0        1
     180.000      118.244      1.0        1
     180.000      117.848      1.0        1
     180.000      117.448      1.0        1
     180.000      117.045      1.0        1
     180.000      116.638      1.0        1
     180.000      116.228      1.0        1
     180.000      115.815      1.0        1
     180.000      115.398      1.0        1
     180.000      114.979      1.0        1
     180.000      114.556      1.0        1
     180.000      114.130      1.0        1
     180.000      113.701      1.0        1
     180.000      113.269      1.0        1
     180.000      112.835      1.0        1
     180.000      112.398      1.0        1
     180.000      111.957      1.0        1
     180.000      111.515      1.0        1
     180.000      111.069      1.0        1
     180.000      110.621      1.0        1
     180.000      110.171      1.0        1
     180.000      109.718      1.0        1
     180.000      109.263      1.0        1
     180.000      108.806      1.0        1
     180.000      108.346      1.0        1
     180.000      107.884      1.0        1
     180.000      107.420      1.0        1
     180.000      106.954      1.0        1
     180.000      106.486      1.0        1
     180.000      106.017      1.0        1
     180.000      105.545      1.0        1
     180.000      105.072      1.0        1
     180.000      104.596      1.0        1
     180.000      104.120      1.0        1
     180.000      103.641      1.0        1
     180.000      103.162      1.0        1
     180.000      102.680      1.0        1
     180.000      102.198      1.0        1
     180.000      101.714      1.0        1
     180.000      101.229      1.0        1
     180.000      100.743      1.0        1
     180.000      100.255      1.0        1
     180.000       99.767      1.0        1
     180.000       99.278      1.0        1
     180.000       98.788      1.0        1
     180.000       98.297      1.0        1
     180.000       97.805      1.0        1
     180.000       97.313      1.0        1
     180.000       96.820      1.0        1
     180.000       96.326      1.0        1
     180.000       95.832      1.0        1
     180.000       95.338      1.0        1
     180.000       94.843      1.0        1
     180.000       94.348      1.0        1
     180.000       93.853      1.0        1
     180.000       93.358      1.0        1
     180.000       92.862      1.0        1
     180.000       92.367      1.0        1
     180.000       91.872      1.0        1
     180.000       91.377      1.0        1
     180.000       90.882      1.0        1
     180.000       90.388      1.0        1
     180.000       89.893      1.0        1
     180.000       89.400      1.0        1
     180.000       88.906      1.0        1
     180.000       88.414      1.0        1
     180.000       87.922      1.0        1
     180.000       87.431      1.0        1
     180.000       86.940      1.0        1
     180.000       86.450      1.0        1
     180.000       85.962      1.0        1
     180.000       85.474      1.0        1
     180.000       84.987      1.0        1
     180.000       84.502      1.0        1
     180.000       84.017      1.0        1
     180.000       83.534      1.0        1
     180.000       83.053      1.0        1
     180.000       82.572      1.0        1
     180.000       82.093      1.0        1
     180.000       81.616      1.0        1
     180.000       81.140      1.0        1
     180.000       80.666      1.0        1
     180.000       80.194      1.0        1
     180.000       79.723      1.0        1
     180.000       79.254      1.0        1
     180.000       78.788      1.0        1
     180.000       78.323      1.0        1
     180.000       77.860      1.0        1
     180.000       77.400      1.0        1
     180.000       76.941      1.0        1
     180.000       76.485      1.0        1
     180.000       76.031      1.0        1
     180.000       75.580      1.0        1
     180.000       75.131      1.0        1
     180.000       74.684      1.0        1
     180.000       74.241      1.0        1
     180.000       73.799      1.0        1
     180.000       73.361      1.0        1
     180.000       72.925      1.0        1
     180.000       72.492      1.0        1
     180.000       72.062      1.0        1
     180.000       71.635      1.0        1
     180.000       71.211      1.0        1
     180.000       70.790      1.0        1
     180.000       70.372      1.0        1
     180.000       69.957      1.0        1
     180.000       69.545      1.0        1
     180.000       69.137      1.0        1
     180.000       68.732      1.0        1
     180.000       68.331      1.0        1
     180.000       67.933      1.0        1
     180.000       67.539      1.0        1
     180.000       67.148      1.0        1
     180.000       66.760      1.0        1
     180.000       66.377      1.0        1
     180.000       65.997      1.0        1
     180.000       65.621      1.0        1
     180.000       65.249      1.0        1
     180.000       64.881      1.0        1
     180.000       64.517      1.0        1
     180.000       64.156      1.0        1
     180.000       63.800      1.0        1
     180.000       63.448      1.0        1
     180.000       63.100      1.0        1
     180.000       62.757      1.0        1
     180.000       62.417      1.0        1
     180.000       62.082      1.0        1
     180.000       61.751      1.0        1
     180.000       61.425      1.0        1
     180.000       61.103      1.0        1
     180.000       60.786      1.0        1
     180.000       60.473      1.0        1
     180.000       60.164      1.0        1
     180.000       59.861      1.0        1
     180.000       59.562      1.0        1
     180.000       59.268      1.0        1
     180.000       58.978      1.0        1
     180.000       58.693      1.0        1
     180.000       58.413      1.0        1
     180.000       58.138      1.0        1
     180.000       57.868      1.0        1
     180.000       57.603      1.0        1
     180.000       57.343      1.0        1
     180.000       57.088      1.0        1
     180.000       56.838      1.0        1
     180.000       56.593      1.0        1
     180.000       56.353      1.0        1
     180.000       56.118      1.0        1
     180.000       55.889      1.0        1
     180.000       55.665      1.0        1
     180.000       55.446      1.0        1
     180.000       55.232      1.0        1
     180.000       55.024      1.0        1
     180.000       54.821      1.0        1
     180.000       54.623      1.0        1
     180.000       54.431      1.0        1
     180.000       54.244      1.0        1
     180.000       54.063      1.0        1
     180.000       53.887      1.0        1
     180.000       53.717      1.0        1
     180.000       53.552      1.0        1
     180.000       53.393      1.0        1
     180.000       53.239      1.0        1
     180.000       53.091      1.0        1
     180.000       52.949      1.0        1
     180.000       52.813      1.0        1
     180.000       52.682      1.0        1
     180.000       52.556      1.0        1
     180.000       52.437      1.0        1
     180.000       52.323      1.0        1
     180.000       52.215      1.0        1
     180.000       52.112      1.0        1
     180.000       52.016      1.0        1
     180.000       51.925      1.0        1
     180.000       51.840      1.0        1
     180.000       51.761      1.0        1
     180.000       51.687      1.0        1
     180.000       51.620      1.0        1
     180.000       51.558      1.0        1
     180.000       51.502      1.0        1
     180.000       51.452      1.0        1
     180.000       51.408      1.0        1
     180.000       51.370      1.0        1
     180.000       51.337      1.0        1
     180.000       51.311      1.0        1
     180.000       51.290      1.0        1
     180.000       51.276      1.0        1
     180.000       51.267      1.0        1
     180.000       51.264      1.0        1
